Wavelength,R,G,B
300,0.0102,0.011,0.009
300.2,0.0104185047398905,0.0109796056613458,0.00901954337684993
300.4,0.0106413269467918,0.0109605309510375,0.00904416701481361
300.6,0.0108684341669606,0.010942779818148,0.00907385397992405
300.8,0.0110997939424629,0.0109263562085916,0.00910858732947112
301,0.0113353738090798,0.0109112640635443,0.00914835010763005
301.2,0.0115751412942118,0.010897507317865,0.00919312534108979
301.4,0.011819063914784,0.0108850898985155,0.00924289603468149
301.6,0.0120671091751509,0.0108740157229819,0.00929764516700694
301.8,0.0123192445650014,0.0108642886976944,0.00935735568606702
302,0.0125754375572634,0.0108559127164487,0.00942201050489008
302.2,0.0128356556060091,0.0108488916588261,0.00949159249716046
302.4,0.0130998661443598,0.0108432293886145,0.00956608449284688
302.6,0.0133680365823905,0.010838929752229,0.00964546927383087
302.8,0.0136401343050352,0.0108359965771322,0.00972972956953524
303,0.0139161266699917,0.0108344336702554,0.00981884805255251
303.2,0.0141959810056263,0.0108342448164189,0.00991280733427338
303.4,0.0144796646088788,0.0108354337767524,0.010011589960515
303.6,0.0147671447431676,0.0108380042871165,0.0101151784071498
303.8,0.0150583886362944,0.0108419600565223,0.0102235550757334
304,0.0153533634783491,0.0108473047655529,0.0103367022891335
304.2,0.0156520364196148,0.0108540420647835,0.010454602287158
304.4,0.0159543745684726,0.0108621755732024,0.0105772372221837
304.6,0.0162603449893067,0.0108717088766313,0.0107045891547846
304.8,0.016569914700409,0.0108826455261463,0.0108366400493603
305,0.0168830506718843,0.0108949890364984,0.0109733717697646
305.2,0.0171997198235548,0.0109087428845339,0.0111147660749336
305.4,0.0175198890228659,0.0109239105076157,0.0112608046145148
305.6,0.0178435250827896,0.0109404953020432,0.0114114689244946
305.8,0.018170594759731,0.0109585006214733,0.0115667404228277
306,0.0185010647514322,0.0109779297753411,0.0117266004050648
306.2,0.0188349016948774,0.0109987860272806,0.0118910300399814
306.4,0.019172072164198,0.011021072593545,0.0120600103652063
306.6,0.0195125426685774,0.0110447926414277,0.0122335222828498
306.8,0.0198562796501559,0.0110699492876827,0.0124115465551322
307,0.0202032494819355,0.0110965455969455,0.0125940638000123
307.2,0.020553418465685,0.0111245845801536,0.012781054486816
307.4,0.0209067528298447,0.011154069192967,0.0129724989318643
307.6,0.0212632187274316,0.0111850023341891,0.0131683772941023
307.8,0.0216227822339439,0.0112173868441874,0.013368669570727
308,0.021985409345266,0.0112512255033138,0.0135733555928164
308.2,0.0223510659755741,0.0112865210303255,0.0137824150209574
308.4,0.0227197179552397,0.0113232760808056,0.0139958273408745
308.6,0.0230913310287359,0.0113614932455837,0.0142135718590584
308.8,0.0234658708525417,0.0114011750491568,0.014435627698394
309,0.0238433029930465,0.0114423239481094,0.0146619737937891
309.2,0.0242235929244559,0.0114849423295347,0.0148925888878029
309.4,0.0246067060266959,0.011529032509455,0.0151274515262744
309.6,0.024992607583318,0.0115745967312424,0.0153665400539506
309.8,0.0253812627794042,0.0116216371640394,0.0156098326101153
310,0.0257726366994719,0.0116701559011795,0.0158573071242173
310.2,0.0261666943253786,0.011720154958608,0.016108941311499
310.4,0.0265634005342271,0.0117716362733026,0.0163647126686246
310.6,0.0269627200962703,0.011824601701694,0.0166245984693089
310.8,0.0273646176728156,0.0118790530180864,0.0168885757599452
311,0.0277690578141308,0.0119349919130785,0.0171566213552343
311.2,0.0281760049573483,0.011992419991984,0.0174287118338129
311.4,0.0285854234243699,0.0120513387732519,0.0177048235338814
311.6,0.0289972774197723,0.0121117496868879,0.017984932548833
311.8,0.0294115310287114,0.0121736540728742,0.018269014722882
312,0.0298281482148277,0.0122370531795907,0.0185570456466921
312.2,0.0302470928181508,0.0123019481622356,0.0188490006530047
312.4,0.0306683285530045,0.0123683400812457,0.0191448548122679
312.6,0.0310918190059118,0.0124362299007176,0.0194445829282644
312.8,0.0315175276334995,0.0125056184868277,0.0197481595337401
313,0.0319454177604034,0.0125765066062535,0.0200555588860324
313.2,0.0323754525771731,0.0126488949245936,0.0203667549626992
313.4,0.0328075951381767,0.012722784004789,0.0206817214571465
313.6,0.0332418083595063,0.0127981743055433,0.0210004317742577
313.8,0.0336780550168821,0.0128750661797433,0.0213228590260213
314,0.0341162977435575,0.0129534598728801,0.0216489760271595
314.2,0.0345564990282251,0.0130333555214693,0.0219787552907574
314.4,0.0349986212129197,0.0131147531514719,0.0223121690238902
314.6,0.0354426264909248,0.0131976526767148,0.0226491891232527
314.8,0.0358884769046768,0.0132820538973116,0.022989787170787
315,0.0363361343436698,0.0133679564980829,0.0233339344293115
315.2,0.0367855605423609,0.0134553600469776,0.0236816018381488
315.4,0.037236717078075,0.0135442639934928,0.0240327600087548
315.6,0.0376895653689094,0.0136346676670951,0.0243873792203463
315.8,0.038144066671639,0.0137265702756406,0.0247454294155303
316,0.0386001820796213,0.0138199709037963,0.025106880195932
316.2,0.0390578725207007,0.0139148685114599,0.025471700817823
316.4,0.0395170987551143,0.0140112619321813,0.0258398601877502
316.6,0.0399778213733962,0.0141091498715826,0.0262113268581641
316.8,0.0404400007942824,0.014208530905779,0.0265860690230473
317,0.0409035972626159,0.0143094034797995,0.0269640545135424
317.2,0.0413685708472516,0.0144117659060075,0.0273452507935814
317.4,0.0418348814389611,0.0145156163625212,0.0277296249555133
317.6,0.0423024887483377,0.0146209528916348,0.0281171437157328
317.8,0.0427713523037011,0.0147277733982386,0.028507773410309
318,0.0432414314490027,0.01483607564824,0.0289014799906137
318.2,0.0437126853417301,0.0149458572669839,0.0292982290189494
318.4,0.044185072950812,0.0150571157376734,0.0296979856641785
318.6,0.0446585530545238,0.0151698483997908,0.0301007146973511
318.8,0.0451330842383911,0.0152840524475177,0.0305063804873337
319,0.0456086248930965,0.015399724928156,0.0309149469964378
319.2,0.0460851332123828,0.0155168627405485,0.0313263777760481
319.4,0.0465625671909584,0.0156354626334992,0.0317406359622507
319.6,0.0470408846224032,0.0157555212041947,0.0321576842714624
319.8,0.0475200430970719,0.0158770348966241,0.0325774849960581
320,0.048,0.016,0.033
320.2,0.0484807125089474,0.0161244126472632,0.0334251907147542
320.4,0.0489621375960553,0.0162502688157727,0.0338530181427101
320.6,0.0494442320386751,0.0163775643335438,0.0342834428796439
320.8,0.049926952433811,0.0165062948876709,0.0347164251446848
321,0.0504102552127003,0.0166364560328355,0.0351519248105686
321.2,0.0508940966553953,0.016768043199813,0.0355899014338934
321.4,0.0513784329053436,0.0169010517039803,0.0360303142853726
321.6,0.0518632199839695,0.0170354767538229,0.0364731223800902
321.8,0.0523484138052557,0.0171713134594427,0.0369182845077554
322,0.0528339701903229,0.0173085568410648,0.037365759262956
322.2,0.0533198448820124,0.0174472018375451,0.0378155050754138
322.4,0.0538059935594663,0.0175872433148776,0.0382674802402386
322.6,0.0542923718527087,0.017728676074702,0.0387216429481825
322.8,0.0547789353572271,0.0178714948628105,0.0391779513158946
323,0.0552656396485531,0.0180156943776556,0.0396363634161755
323.2,0.0557524402968435,0.0181612692788571,0.0400968373082309
323.4,0.0562392928814617,0.0183082141957098,0.0405593310679273
323.6,0.0567261530055586,0.0184565237356905,0.0410238028180455
323.8,0.0572129763106532,0.0186061924929656,0.0414902107585348
324,0.0576997184912147,0.0187572150568983,0.0419585131967686
324.2,0.0581863353092426,0.0189095860205558,0.0424286685777976
324.4,0.0586727826088483,0.019063299989217,0.042900635514605
324.6,0.0591590163308358,0.0192183515888795,0.0433743728183601
324.8,0.0596449925272834,0.0193747354747671,0.0438498395286737
325,0.0601306673761241,0.0195324463398372,0.0443269949438521
325.2,0.0606159971957269,0.019691478923288,0.0448057986511508
325.4,0.061100938459478,0.0198518280190658,0.0452862105570304
325.6,0.0615854478103621,0.0200134884843726,0.0457681909174097
325.8,0.0620694820755426,0.020176455248173,0.0462517003679205
326,0.0625529982809435,0.020340723319702,0.0467366999541624
326.2,0.0630359536658306,0.0205062877969722,0.0472231511619569
326.4,0.0635183056973912,0.0206731438752808,0.0477110159476015
326.6,0.0640000120853174,0.0208412868557176,0.0482002567681252
326.8,0.0644810307963851,0.0210107121536716,0.0486908366115413
327,0.0649613200690358,0.0211814153073388,0.0491827190271029
327.2,0.0654408384279586,0.0213533919862296,0.0496758681555577
327.4,0.0659195446986696,0.0215266379996757,0.0501702487594011
327.6,0.0663973980220943,0.0217011493053378,0.0506658262531317
327.8,0.0668743578691482,0.021876922017713,0.0511625667335053
328,0.0673503840553175,0.0220539524166418,0.0516604370097891
328.2,0.0678254367552409,0.0222322369558156,0.0521594046340167
328.4,0.0682994765172904,0.0224117722712842,0.0526594379312422
328.6,0.0687724642781516,0.0225925551899629,0.0531605060297941
328.8,0.0692443613774066,0.02277458273814,0.053662578891531
329,0.069715129572113,0.022957852149984,0.0541656273420946
329.2,0.070184731051386,0.023142360876051,0.0546696231011647
329.4,0.0706531284509801,0.0233281065917921,0.0551745388127145
329.6,0.0711202848678686,0.0235150872060607,0.0556803480752632
329.8,0.0715861638748259,0.0237033008696198,0.0561870254721316
330,0.0720507295350084,0.0238927459836493,0.0566945466016969
330.2,0.072513946416535,0.0240834212082535,0.0572028881076459
330.4,0.0729757796070688,0.0242753254709682,0.0577120277092302
330.6,0.0734361947283979,0.0244684579752684,0.0582219442315207
330.8,0.0738951579510164,0.0246628182090751,0.0587326176356612
331,0.0743526360087056,0.0248584059532632,0.059244029049124
331.2,0.0748085962131151,0.0250552212901687,0.0597561607959634
331.4,0.0752630064683437,0.0252532646120955,0.0602689964270702
331.6,0.0757158352855207,0.0254525366298235,0.0607825207504267
331.8,0.0761670517973871,0.0256530383811155,0.0612967198613606
332,0.0766166257728758,0.0258547712392246,0.0618115811727995
332.2,0.0770645276316938,0.0260577369214017,0.0623270934455254
332.4,0.0775107284589027,0.0262619374974027,0.062843246818429
332.6,0.0779552000194999,0.0264673753979957,0.0633600328387645
332.8,0.0783979147729995,0.0266740534234687,0.0638774444924032
333,0.0788388458880134,0.0268819747521365,0.0643954762340888
333.2,0.0792779672568329,0.0270911429488485,0.0649141240176915
333.4,0.0797152535100089,0.0273015619734956,0.065433385326462
333.6,0.0801506800309337,0.0275132361895179,0.0659532592032866
333.8,0.0805842229704217,0.027726170372412,0.0664737462809411
334,0.0810158592612905,0.0279403697182378,0.0669948488123453
334.2,0.0814455666329421,0.0281558398521266,0.0675165707008179
334.4,0.0818733236259441,0.0283725868367881,0.0680389175303302
334.6,0.0822991096066101,0.0285906171810175,0.0685618965957608
334.8,0.082722904781582,0.0288099378482034,0.0690855169331505
335,0.0831446902124097,0.0290305562648346,0.0696097893499558
335.2,0.0835644478301328,0.0292524803290074,0.0701347264553037
335.4,0.0839821604498624,0.0294757184189339,0.0706603426902468
335.6,0.0843978117853606,0.0297002794014478,0.0711866543580166
335.8,0.0848113864636229,0.0299261726405133,0.0717136796542786
336,0.0852228700394587,0.0301534080057311,0.0722414386973867
336.2,0.0856322490100725,0.0303819958808467,0.0727699535586369
336.4,0.0860395108296448,0.0306119471722573,0.073299248292523
336.6,0.0864446439239136,0.0308432733175192,0.07382934896699
336.8,0.086847637704755,0.0310759862938551,0.0743602836936886
337,0.0872484825847643,0.0313100986266616,0.0748920826582299
337.2,0.0876471699918378,0.0315456233980163,0.0754247781504401
337.4,0.0880436923837526,0.0317825742551853,0.0759584045946139
337.6,0.088438043262749,0.0320209654191306,0.0764929985797703
337.8,0.0888302171901105,0.0322608116930173,0.0770285988899056
338,0.0892202098007459,0.032502128470721,0.077565246534249
338.2,0.089608017817769,0.032744931745335,0.0781029847775161
338.4,0.0899936390670811,0.0329892381176779,0.0786418591701641
338.6,0.0903770724919515,0.0332350648048007,0.0791819175786457
338.8,0.090758318167598,0.0334824296484944,0.0797232102156634
339,0.0911373773157689,0.0337313511237968,0.0802657896704244
339.2,0.0915142523193238,0.0339818483475007,0.0808097109388949
339.4,0.091888946736814,0.0342339410866603,0.0813550314540542
339.6,0.0922614653170647,0.0344876497670994,0.0819018111161492
339.8,0.0926318140137551,0.034742995481918,0.0824501123229494
340,0.093,0.035,0.083
340.2,0.0933660316825448,0.0352586857741622,0.0835515416300676
340.4,0.0937299187059218,0.0355190759399809,0.0841048072615054
340.6,0.0940916719311249,0.0357811942909559,0.0846598694631186
340.8,0.0944513034042464,0.0360450652443532,0.0852168032579529
341,0.0948088263247263,0.0363107138066879,0.0857756860562708
341.2,0.0951642550136035,0.0365781655392083,0.0863365975885297
341.4,0.0955176048817651,0.0368474465233797,0.0868996198383586
341.6,0.0958688923981971,0.0371185833263673,0.0874648369755358
341.8,0.0962181350582345,0.0373916029665207,0.0880323352889661
342,0.0965653513518117,0.037666532878857,0.0886022031196583
342.2,0.0969105607317121,0.0379434008805446,0.0891745307937015
342.4,0.0972537835818188,0.0382222351363867,0.0897494105552442
342.6,0.0975950411853648,0.0385030641243055,0.09032693649947
342.8,0.0979343556931829,0.038785916600825,0.0909072045055754
343,0.0982717500919561,0.0390708215665551,0.0914903121697475
343.2,0.0986072481724677,0.0393578082316753,0.0920763587381409
343.4,0.0989408744978519,0.0396469059814184,0.0926654450398551
343.6,0.0992726543718431,0.0399381443415535,0.0932576734199117
343.8,0.0996026138070269,0.0402315529438706,0.0938531476722317
344,0.0999307794930901,0.0405271614916635,0.0944519729726133
344.2,0.100257178765071,0.0408249997252136,0.0950542558117084
344.4,0.100581839571608,0.0411250973872739,0.0956601039280003
344.6,0.100904790443194,0.0414274841885522,0.0962696262407814
344.8,0.101226060460422,0.0417321897731948,0.0968829327831295
345,0.101545679222236,0.0420392436842706,0.0975001346348862
345.2,0.101863676814185,0.042348675329254,0.0981213438556337
345.4,0.102180083776669,0.0426605139455091,0.0987466734176715
345.6,0.10249493107319,0.0429747885657734,0.0993762371389953
345.8,0.102808250058604,0.0432915279836408,0.100010149616272
346,0.10312007244737,0.0436107607190456,0.10064852615782
346.2,0.103430430281801,0.0439325149837468,0.101291482716583
346.4,0.103739355900311,0.0442568186468106,0.101939135823111
346.6,0.10404688190567,0.0445836992000944,0.102591602518534
346.8,0.104353041133252,0.0449131837237313,0.103249000287541
347,0.104657866619282,0.0452452988516125,0.103911446991359
347.2,0.104961391569094,0.0455800707368715,0.104579060800728
347.4,0.105263649325372,0.045917525017368,0.105251960128877
347.6,0.105564673336408,0.046257686781171,0.105930263564507
347.8,0.105864497124346,0.0466005805320429,0.10661408980476
348,0.106163154253438,0.0469462301549229,0.107303557588205
348.2,0.106460678298289,0.0472946588814103,0.107998785627807
348.4,0.10675710281211,0.0476458892552493,0.108699892543914
348.6,0.107052461294967,0.0479999430978112,0.109406996797222
348.8,0.107346787162034,0.0483568414735788,0.110120216621765
349,0.10764011371184,0.0487166046556302,0.110839669957882
349.2,0.107932474094518,0.0490792520911221,0.111565474385201
349.4,0.108223901280061,0.0494448023667732,0.112297747055614
349.6,0.108514428026566,0.0498132731743487,0.113036604626253
349.8,0.108804086848488,0.0501846812761429,0.113782163192468
350,0.109092909984889,0.0505590424704636,0.114534538220808
350.2,0.109380929367687,0.0509363715571155,0.115293844481992
350.4,0.109668176589909,0.0513166823028835,0.11606019598389
350.6,0.109954682873938,0.0516999874070172,0.116833705904502
350.8,0.110240479039767,0.0520862984667136,0.11761448652493
351,0.110525595473245,0.0524756259426009,0.118402649162359
351.2,0.110810062094329,0.0528679791242232,0.119198304103035
351.4,0.111093908325337,0.0532633660955224,0.120001560535241
351.6,0.111377163059192,0.0536617937003233,0.120812526482273
351.8,0.111659854627678,0.0540632675078167,0.121631308735418
352,0.111942010769688,0.0544677917780427,0.122458012786934
352.2,0.112223658599474,0.054875369427375,0.123292742763024
352.4,0.112504824574896,0.055286001994004,0.124135601356815
352.6,0.112785534465674,0.0556996896034206,0.124986689761333
352.8,0.11306581332164,0.0561164309339002,0.125846107602484
353,0.113345685440983,0.0565362231819859,0.126713952872028
353.2,0.113625174338503,0.056959062027972,0.127590321860559
353.4,0.113904302713862,0.0573849416013882,0.128475309090481
353.6,0.11418309241983,0.0578138544464829,0.129369007248983
353.8,0.114461564430539,0.058245791487707,0.130271507121022
354,0.114739738809733,0.0586807419951971,0.131182897522293
354.2,0.115017634679014,0.0591186935502596,0.132103265232213
354.4,0.115295270186099,0.0595596320108546,0.133032694926895
354.6,0.115572662473064,0.0600035414770784,0.133971269112125
354.8,0.115849827644597,0.0604504042566486,0.13491906805634
355,0.116126780736249,0.0609002008303867,0.135876169723607
355.2,0.116403535682682,0.0613529098177019,0.136842649706597
355.4,0.116680105285921,0.0618085079420753,0.137818581159564
355.6,0.116956501183603,0.0622669699965429,0.138804034731324
355.8,0.117232733817227,0.0627282688091794,0.139799078498228
356,0.117508812400408,0.0631923752085822,0.140803777897144
356.2,0.117784744887119,0.0636592579893547,0.141818195658432
356.4,0.11806053793995,0.0641288838775895,0.142842391738919
356.6,0.118336196898355,0.0646012174963534,0.143876423254882
356.8,0.118611725746898,0.0650762213311696,0.144920344415021
357,0.11888712708351,0.065553855695502,0.145974206453437
357.2,0.119162402087736,0.066034078696239,0.14703805756261
357.4,0.119437550488982,0.0665168461991765,0.148111942826375
357.6,0.119712570534772,0.0670021117945023,0.149195904152901
357.8,0.119987458958993,0.0674898267622793,0.15028998020767
358,0.120262210950148,0.0679799400379291,0.151394206346447
358.2,0.120536820119604,0.0684723981777157,0.152508614548266
358.4,0.120811278469842,0.0689671453242296,0.153633233348402
358.6,0.121085576362711,0.0694641231718705,0.154768087771351
358.8,0.121359702487675,0.0699632709323319,0.155913199263804
359,0.121633643830061,0.0704645253000841,0.157068585627628
359.2,0.121907385639317,0.0709678204178582,0.158234260952843
359.4,0.122180911397252,0.0714730878421294,0.159410235550594
359.6,0.122454202786295,0.071980256508601,0.160596515886135
359.8,0.122727239657741,0.0724892526976879,0.161793104511805
360,0.123,0.073,0.163
360.2,0.123272459907436,0.0735124192826531,0.164217196877284
360.4,0.123544593564427,0.0740264286770765,0.165444685587781
360.6,0.123816373268074,0.0745419436213908,0.166682452530922
360.8,0.12408776946614,0.0750588769242839,0.167930480128494
361,0.124358750795568,0.075577138829713,0.169188746892799
361.2,0.124629284121004,0.0760966370816065,0.170457227494831
361.4,0.124899334573319,0.0766172769885671,0.171735892832438
361.6,0.12516886558813,0.0771389614885732,0.173024710098492
361.8,0.125437838944322,0.0776615912136813,0.174323642849055
362,0.125706214802567,0.0781850645547292,0.175632651071552
362.2,0.12597395174385,0.0787092777260367,0.176951691252934
362.4,0.126241006807985,0.0792341248301094,0.178280716447849
362.6,0.126507335532142,0.0797594979223398,0.17961967634681
362.8,0.126772891989363,0.0802852870757102,0.180968517344359
363,0.127037628827088,0.0808113804454946,0.182327182607242
363.2,0.127301497305675,0.0813376643339616,0.183695612142571
363.4,0.12756444733692,0.0818640232550755,0.185073742865994
363.6,0.127826427522579,0.0823903399991998,0.186461508669865
363.8,0.128087385192892,0.0829164956977988,0.187858840491409
364,0.128347266445101,0.0834423698881398,0.189265666380894
364.2,0.128606016181974,0.0839678405779956,0.190681911569792
364.4,0.128863578150325,0.0844927843103469,0.192107498538957
364.6,0.129119894979535,0.0850170762280842,0.193542347086784
364.8,0.129374908220076,0.0855405901387101,0.194986374397381
365,0.129628558382029,0.0860631985790417,0.196439495108738
